r/R,twist (deg)
0.197,22.2693
0.2462,21.6789
0.2954,18.9238
0.3447,15.8826
0.3939,14.1445
0.4432,13.1807
0.4924,12.3003
0.5416,11.4105
0.5909,10.6566
0.6401,10.0077
0.6894,9.3514
0.7386,8.6647
0.7878,8.1339
0.8371,7.9251
0.8863,7.932
0.9356,8.2218
0.9848,11.3191
